#Parameters = {Lp=29.26; Ls=52.3; PinInsCon=4.1; Pincon=1.2; Pinlength=17.9; Wavelength=2.63; WavelengthsNumber=2.63; Wcon=12.7; Wf=2.63; Wp=37.74; Ws=56.5; conPlaceX=0; conPlaceY=22.37; h=1.61; hcon=1.7; hightSkrue=8; pinHole=2.4; tc=0.035; tykSkrue=6.2; y0=10.21}
#"Frequency / GHz"	"S1,1 [Magnitude / dB]"
#-----------------------------------------
2.2000000476837	-1.3540667311914
2.2004001140594	-1.3551892403159
2.2007999420166	-1.3563752268770
2.2012000083923	-1.3576231257636
2.2016000747681	-1.3589382755976
2.2019999027252	-1.3603178570771
2.2023999691010	-1.3617646404173
2.2028000354767	-1.3632792625165
2.2032001018524	-1.3648632275357
2.2035999298096	-1.3665180513242
2.2039999961853	-1.3682443948887
2.2044000625610	-1.3700420924248
2.2047998905182	-1.3719114002951
2.2051999568939	-1.3738564475423
2.2056000232697	-1.3758749469850
2.2060000896454	-1.3779689112079
2.2063999176025	-1.3801390848268
2.2067999839783	-1.3823857801658
2.2072000503540	-1.3847093307023
2.2076001167297	-1.3871109414038
2.2079999446869	-1.3895909560124
2.2084000110626	-1.3921489354701
2.2088000774384	-1.3947864788616
2.2091999053955	-1.3975040152970
2.2095999717712	-1.4003002354751
2.2100000381470	-1.4031772604609
2.2104001045227	-1.4061346870007
2.2107999324799	-1.4091720803196
2.2111999988556	-1.4122911529981
2.2116000652313	-1.4154903156997
2.2119998931885	-1.4187712558523
2.2123999595642	-1.4221335782201
2.2128000259399	-1.4255774347080
2.2132000923157	-1.4291024274990
2.2135999202728	-1.4327069845385
2.2139999866486	-1.4363945924719
2.2144000530243	-1.4401631855935
2.2147998809814	-1.4440117167921
2.2151999473572	-1.4479419397290
2.2156000137329	-1.4519514839155
2.2160000801086	-1.4560422793529
2.2163999080658	-1.4602139637815
2.2167999744415	-1.4644646772589
2.2172000408173	-1.4687953468260
2.2176001071930	-1.4732062024300
2.2179999351501	-1.4776946660985
2.2184000015259	-1.4822629225851
2.2188000679016	-1.4869095823291
2.2191998958588	-1.4916337016991
2.2195999622345	-1.4964348310859
2.2200000286102	-1.5013122854139
2.2204000949860	-1.5062671384527
2.2207999229431	-1.5112971562960
2.2211999893188	-1.5164023403152
2.2216000556946	-1.5215840244969
2.2219998836517	-1.5268386917422
2.2223999500275	-1.5321668189534
2.2228000164032	-1.5375677647404
2.2232000827789	-1.5430416170784
2.2235999107361	-1.5485867093172
2.2239999771118	-1.5542033780881
2.2244000434875	-1.5598907075745
2.2248001098633	-1.5656470844010
2.2251999378204	-1.5714718360878
2.2256000041962	-1.5773659146678
2.2260000705719	-1.5833282732452
2.2263998985291	-1.5893561458235
2.2267999649048	-1.5954500197842
2.2272000312805	-1.6016103760843
2.2276000976562	-1.6078338481569
2.2279999256134	-1.6141220152649
2.2283999919891	-1.6204726779983
2.2288000583649	-1.6268854423232
2.2291998863220	-1.6333600132035
2.2295999526978	-1.6398950630201
2.2300000190735	-1.6464894047381
2.2304000854492	-1.6531429892870
2.2307999134064	-1.6598537067752
2.2311999797821	-1.6666237136754
2.2316000461578	-1.6734505088472
2.2320001125336	-1.6803303417472
2.2323999404907	-1.6872663190118
2.2328000068665	-1.6942557726614
2.2332000732422	-1.7012976855475
2.2335999011993	-1.7083933148742
2.2339999675751	-1.7155389902858
2.2344000339508	-1.7227364580897
2.2348001003265	-1.7299837193040
2.2351999282837	-1.7372806483954
2.2355999946594	-1.7446237804891
2.2360000610352	-1.7520151235371
2.2363998889923	-1.7594537640026
2.2367999553680	-1.7669380135603
2.2372000217438	-1.7744665232384
2.2376000881195	-1.7820395803514
2.2379999160767	-1.7896558243493
2.2383999824524	-1.7973153132930
2.2388000488281	-1.8050154663436
2.2392001152039	-1.8127586303882
2.2395999431610	-1.8205411748048
2.2400000095367	-1.8283626754734
2.2404000759125	-1.8362249711903
2.2407999038696	-1.8441252299612
2.2411999702454	-1.8520620905057
2.2416000366211	-1.8600364948420
2.2420001029968	-1.8680473996545
2.2423999309540	-1.8760945201184
2.2427999973297	-1.8841757082789
2.2432000637054	-1.8922917024620
2.2435998916626	-1.9004411757220
2.2439999580383	-1.9086246715849
2.2444000244141	-1.9168407971240
2.2448000907898	-1.9250885907230
2.2451999187469	-1.9333673555724
2.2455999851227	-1.9416787755634
2.2460000514984	-1.9500197682341
2.2464001178741	-1.9583929686837
2.2467999458313	-1.9667946158678
2.2472000122070	-1.9752259528204
2.2476000785828	-1.9836854461322
2.2479999065399	-1.9921738080835
2.2483999729156	-2.0006909263544
2.2488000392914	-2.0092353110144
2.2492001056671	-2.0178091906182
2.2495999336243	-2.0264084113578
2.2500000000000	-2.0350358746124
2.2504000663757	-2.0436888230992
2.2507998943329	-2.0523701947973
2.2511999607086	-2.0610756146509
2.2516000270844	-2.0698100561659
2.2520000934601	-2.0785684760262
2.2523999214172	-2.0873538286596
2.2527999877930	-2.0961648081253
2.2532000541687	-2.1050021476769
2.2535998821259	-2.1138641314061
2.2539999485016	-2.1227546358412
2.2544000148773	-2.1316680557209
2.2548000812531	-2.1406084124347
2.2551999092102	-2.1495756996759
2.2555999755859	-2.1585672634682
2.2560000419617	-2.1675861839555
2.2564001083374	-2.1766322276851
2.2567999362946	-2.1857025694488
2.2572000026703	-2.1948019647552
2.2576000690460	-2.2039266373330
2.2579998970032	-2.2130783730693
2.2583999633789	-2.2222584024965
2.2588000297546	-2.2314659105541
2.2592000961304	-2.2407026804900
2.2595999240875	-2.2499669596952
2.2599999904633	-2.2592601613020
2.2604000568390	-2.2685833106890
2.2607998847961	-2.2779350315081
2.2611999511719	-2.2873193161638
2.2616000175476	-2.2967325539004
2.2620000839233	-2.3061772801832
2.2623999118805	-2.3156548491170
2.2627999782562	-2.3251642810990
2.2632000446320	-2.3347071325207
2.2636001110077	-2.3442837215446
2.2639999389648	-2.3538952111893
2.2644000053406	-2.3635410065879
2.2648000717163	-2.3732230424293
2.2651998996735	-2.3829421494734
2.2655999660492	-2.3926990009830
2.2660000324249	-2.4024925736424
2.2664000988007	-2.4123268887493
2.2667999267578	-2.4221994014785
2.2671999931335	-2.4321145998457
2.2676000595093	-2.4420708172022
2.2679998874664	-2.4520697190580
2.2683999538422	-2.4621123225064
2.2688000202179	-2.4721992787917
2.2692000865936	-2.4823324095741
2.2695999145508	-2.4925128206250
2.2699999809265	-2.5027392738905
2.2704000473022	-2.5130154566099
2.2708001136780	-2.5233417180303
2.2711999416351	-2.5337193143518
2.2716000080109	-2.5441478320159
2.2720000743866	-2.5546317540083
2.2723999023438	-2.5651702622965
2.2727999687195	-2.5757626542029
2.2732000350952	-2.5864136116731
2.2736001014709	-2.5971218475754
2.2739999294281	-2.6078916937622
2.2743999958038	-2.6187197293754
2.2748000621796	-2.6296120272151
2.2751998901367	-2.6405673925780
2.2755999565125	-2.6515867802545
2.2760000228882	-2.6626749260678
2.2764000892639	-2.6738292754363
2.2767999172211	-2.6850532859088
2.2771999835968	-2.6963478933801
2.2776000499725	-2.7077137732235
2.2780001163483	-2.7191534698317
2.2783999443054	-2.7306688917856
2.2788000106812	-2.7422604318285
2.2792000770569	-2.7539304365076
2.2795999050140	-2.7656802049773
2.2799999713898	-2.7775091994772
2.2804000377655	-2.7894239442247
2.2808001041412	-2.8014206580465
2.2811999320984	-2.8135057106699
2.2815999984741	-2.8256761379599
2.2820000648499	-2.8379362398269
2.2823998928070	-2.8502880024629
2.2827999591827	-2.8627305605339
2.2832000255585	-2.8752687067802
2.2836000919342	-2.8879029767356
2.2839999198914	-2.9006337314396
2.2843999862671	-2.9134639928424
2.2848000526428	-2.9263954120298
2.2852001190186	-2.9394290695328
2.2855999469757	-2.9525671865852
2.2860000133514	-2.9658115012673
2.2864000797272	-2.9791644874036
2.2867999076843	-2.9926256392255
2.2871999740601	-3.0062000254256
2.2876000404358	-3.0198860167686
2.2880001068115	-3.0336881193690
2.2883999347687	-3.0476055127554
2.2888000011444	-3.0616421787481
2.2892000675201	-3.0757987676515
2.2895998954773	-3.0900791407375
2.2899999618530	-3.1044810296834
2.2904000282288	-3.1190106467678
2.2908000946045	-3.1336672296143
2.2911999225616	-3.1484534330487
2.2915999889374	-3.1633711966347
2.2920000553131	-3.1784205158464
2.2923998832703	-3.1936060743140
2.2927999496460	-3.2089279294004
2.2932000160217	-3.2243891262093
2.2936000823975	-3.2399897604554
2.2939999103546	-3.2557341305394
2.2943999767303	-3.2716213577442
2.2948000431061	-3.2876566483744
2.2952001094818	-3.3038368032987
2.2955999374390	-3.3201704737002
2.2960000038147	-3.3366526527158
2.2964000701904	-3.3532900509920
2.2967998981476	-3.3700830635786
2.2971999645233	-3.3870324079958
2.2976000308990	-3.4041413140690
2.2980000972748	-3.4214101103689
2.2983999252319	-3.4388436543748
2.2987999916077	-3.4564398042460
2.2992000579834	-3.4742039924716
2.2995998859406	-3.4921363919250
2.2999999523163	-3.5102386502652
2.3004000186920	-3.5285129301001
2.3008000850677	-3.5469618960877
2.3011999130249	-3.5655852099879
2.3015999794006	-3.5843879325923
2.3020000457764	-3.6033683035402
2.3024001121521	-3.6225314772195
2.3027999401093	-3.6418765702993
2.3032000064850	-3.6614064025680
2.3036000728607	-3.6811229435695
2.3039999008179	-3.7010290482328
2.3043999671936	-3.7211252216513
2.3048000335693	-3.7414115755608
2.3052000999451	-3.7618945943891
2.3055999279022	-3.7825705766912
2.3059999942780	-3.8034457577328
2.3064000606537	-3.8245182829252
2.3067998886108	-3.8457930927675
2.3071999549866	-3.8672698611064
2.3076000213623	-3.8889516659913
2.3080000877380	-3.9108387358286
2.3083999156952	-3.9329343027613
2.3087999820709	-3.9552382718615
2.3092000484467	-3.9777540762940
2.3096001148224	-4.0004811425685
2.3099999427795	-4.0234236811275
2.3104000091553	-4.0465827442382
2.3108000755310	-4.0699585082789
2.3111999034882	-4.0935547747074
2.3115999698639	-4.1173702113739
2.3120000362396	-4.1414077373593
2.3124001026154	-4.1656709391920
2.3127999305725	-4.1901572687806
2.3131999969482	-4.2148730255240
2.3136000633240	-4.2398170198739
2.3139998912811	-4.2649902865121
2.3143999576569	-4.2903931013118
2.3148000240326	-4.3160315048213
2.3152000904083	-4.3419030486248
2.3155999183655	-4.3680108649947
2.3159999847412	-4.3943550904232
2.3164000511169	-4.4209377136639
2.3168001174927	-4.4477596678255
2.3171999454498	-4.4748234241245
2.3176000118256	-4.5021283595423
2.3180000782013	-4.5296774098923
2.3183999061584	-4.5574702497047
2.3187999725342	-4.5855109350251
2.3192000389099	-4.6137964300053
2.3196001052856	-4.6423330690795
2.3199999332428	-4.6711158720198
2.3203999996185	-4.7001496320223
2.3208000659943	-4.7294354650077
2.3211998939514	-4.7589720694176
2.3215999603271	-4.7887632545113
2.3220000267029	-4.8188073425406
2.3224000930786	-4.8491069319720
2.3227999210358	-4.8796627044037
2.3231999874115	-4.9104729684446
2.3236000537872	-4.9415434433167
2.3239998817444	-4.9728698478450
2.3243999481201	-5.0044545309013
2.3248000144958	-5.0362975672547
2.3252000808716	-5.0684007418926
2.3255999088287	-5.1007650047791
2.3259999752045	-5.1333890247709
2.3264000415802	-5.1662730362177
2.3268001079559	-5.1994190369339
2.3271999359131	-5.2328256645073
2.3276000022888	-5.2664924923115
2.3280000686646	-5.3004220508513
2.3283998966217	-5.3346135647484
2.3287999629974	-5.3690652060042
2.3292000293732	-5.4037776003288
2.3296000957489	-5.4387527186699
2.3299999237061	-5.4739858617843
2.3303999900818	-5.5094817147111
2.3308000564575	-5.5452362905381
2.3311998844147	-5.5812498596292
2.3315999507904	-5.6175219652334
2.3320000171661	-5.6540519173929
2.3324000835419	-5.6908380539990
2.3327999114990	-5.7278811869336
2.3331999778748	-5.7651779978349
2.3336000442505	-5.8027293982446
2.3340001106262	-5.8405317208017
2.3343999385834	-5.8785864570524
2.3348000049591	-5.9168888589384
2.3352000713348	-5.9554404245442
2.3355998992920	-5.9942356456370
2.3359999656677	-6.0332766575056
2.3364000320435	-6.0725588590097
2.3368000984192	-6.1120804970375
2.3371999263763	-6.1518379183295
2.3375999927521	-6.1918320495080
2.3380000591278	-6.2320565682877
2.3383998870850	-6.2725098544685
2.3387999534607	-6.3131893646915
2.3392000198364	-6.3540913511477
2.3396000862122	-6.3952130255323
2.3399999141693	-6.4365493808412
2.3403999805450	-6.4780972018268
2.3408000469208	-6.5198528828355
2.3412001132965	-6.5618109227257
2.3415999412537	-6.6039694089731
2.3420000076294	-6.6463219484433
2.3424000740051	-6.6888646068611
2.3427999019623	-6.7315902413213
2.3431999683380	-6.7744949586947
2.3436000347137	-6.8175724740256
2.3440001010895	-6.8608193077249
2.3443999290466	-6.9042250020277
2.3447999954224	-6.9477859124395
2.3452000617981	-6.9914954109803
2.3455998897552	-7.0353451125206
2.3459999561310	-7.0793291025456
2.3464000225067	-7.1234386750326
2.3468000888824	-7.1676661218484
2.3471999168396	-7.2120038699849
2.3475999832153	-7.2564438337111
2.3480000495911	-7.3009746125873
2.3484001159668	-7.3455893325333
2.3487999439240	-7.3902768912564
2.3492000102997	-7.4350296581662
2.3496000766754	-7.4798342295790
2.3499999046326	-7.5246807452092
2.3503999710083	-7.5695610072771
2.3508000373840	-7.6144599160370
2.3512001037598	-7.6593672281657
2.3515999317169	-7.7042705885801
2.3519999980927	-7.7491575356573
2.3524000644684	-7.7940139632411
2.3527998924255	-7.8388267332206
2.3531999588013	-7.8835836248226
2.3536000251770	-7.9282671758701
2.3540000915527	-7.9728653166718
2.3543999195099	-8.0173622352387
2.3547999858856	-8.0617411826219
2.3552000522614	-8.1059870627553
2.3556001186371	-8.1500823682043
2.3559999465942	-8.1940110409184
2.3564000129700	-8.2377544808342
2.3568000793457	-8.2812982573231
2.3571999073029	-8.3246188603262
2.3575999736786	-8.3677009818213
2.3580000400543	-8.4105256270011
2.3584001064301	-8.4530725336005
2.3587999343872	-8.4953203013852
2.3592000007629	-8.5372493966321
2.3596000671387	-8.5788394030149
2.3599998950958	-8.6200684846900
2.3603999614716	-8.6609172929007
2.3608000278473	-8.7013604307650
2.3612000942230	-8.7413772505189
2.3615999221802	-8.7809452962507
2.3619999885559	-8.8200427830290
2.3624000549316	-8.8586445885631
2.3627998828888	-8.8967274398585
2.3631999492645	-8.9342684565350
2.3636000156403	-8.9712417168088
2.3640000820160	-9.0076269359197
2.3643999099731	-9.0433971931357
2.3647999763489	-9.0785284526404
2.3652000427246	-9.1129955146428
2.3656001091003	-9.1467763480998
2.3659999370575	-9.1798436697053
2.3664000034332	-9.2121756556021
2.3668000698090	-9.2437441918824
2.3671998977661	-9.2745291706216
2.3675999641418	-9.3045046046295
2.3680000305176	-9.3336445411742
2.3684000968933	-9.3619284377824
2.3687999248505	-9.3893319954223
2.3691999912262	-9.4158311098336
2.3696000576019	-9.4414045344629
2.3699998855591	-9.4660296564416
2.3703999519348	-9.4896841783322
2.3708000183105	-9.5123478727464
2.3712000846863	-9.5339993107415
2.3715999126434	-9.5546199125792
2.3719999790192	-9.5741880882662
2.3724000453949	-9.5926887707497
2.3728001117706	-9.6101005728867
2.3731999397278	-9.6264095986863
2.3736000061035	-9.6415997051094
2.3740000724792	-9.6556550829501
2.3743999004364	-9.6685623321651
2.3747999668121	-9.6803078289473
2.3752000331879	-9.6908803286650
2.3756000995636	-9.7002678617888
2.3759999275208	-9.7084627414581
2.3763999938965	-9.7154545703546
2.3768000602722	-9.7212386723232
2.3771998882294	-9.7258052506625
2.3775999546051	-9.7291519899391
2.3780000209808	-9.7312759535504
2.3784000873566	-9.7321721890254
2.3787999153137	-9.7318398901775
2.3791999816895	-9.7302811308228
2.3796000480652	-9.7274957149096
2.3800001144409	-9.7234865650933
2.3803999423981	-9.7182579884419
2.3808000087738	-9.7118134118611
2.3812000751495	-9.7041615906889
2.3815999031067	-9.6953084231739
2.3819999694824	-9.6852628686566
2.3824000358582	-9.6740343776156
2.3828001022339	-9.6616355497077
2.3831999301910	-9.6480754631934
2.3835999965668	-9.6333702460593
2.3840000629425	-9.6175326516762
2.3843998908997	-9.6005765596295
2.3847999572754	-9.5825199325808
2.3852000236511	-9.5633787202738
2.3856000900269	-9.5431700685423
2.3859999179840	-9.5219138841551
2.3863999843597	-9.4996272618615
2.3868000507355	-9.4763329695187
2.3872001171112	-9.4520489063177
2.3875999450684	-9.4267970677807
2.3880000114441	-9.4005998519144
2.3884000778198	-9.3734785004148
2.3887999057770	-9.3454559633581
2.3891999721527	-9.3165559308885
2.3896000385284	-9.2868006764619
2.3900001049042	-9.2562132602522
2.3903999328613	-9.2248200411492
2.3907999992371	-9.1926408282290
2.3912000656128	-9.1597050110274
2.3915998935699	-9.1260343506409
2.3919999599457	-9.0916518586513
2.3924000263214	-9.0565848912499
2.3928000926971	-9.0208536958413
2.3931999206543	-8.9844864262979
2.3935999870300	-8.9475058342765
2.3940000534058	-8.9099349758444
2.3943998813629	-8.8718003118843
2.3947999477386	-8.8331231566508
2.3952000141144	-8.7939278479209
2.3956000804901	-8.7542383090975
2.3959999084473	-8.7140764532706
2.3963999748230	-8.6734652672436
2.3968000411987	-8.6324275386383
2.3972001075745	-8.5909850521293
2.3975999355316	-8.5491599721018
2.3980000019073	-8.5069732724723
2.3984000682831	-8.4644462796730
2.3987998962402	-8.4215983649846
2.3991999626160	-8.3784521016440
2.3996000289917	-8.3350247554727
2.4000000953674	-8.2913376810691
2.4003999233246	-8.2474075539699
2.4007999897003	-8.2032549454882
2.4012000560760	-8.1588979814536
2.4015998840332	-8.1143524150758
2.4019999504089	-8.0696372399414
2.4024000167847	-8.0247685869331
2.4028000831604	-7.9797630346935
2.4031999111176	-7.9346363842069
2.4035999774933	-7.8894028084535
2.4040000438690	-7.8440795419064
2.4044001102448	-7.7986799842181
2.4047999382019	-7.7532180087143
2.4052000045776	-7.7077082700043
2.4056000709534	-7.6621624968036
2.4059998989105	-7.6165956279192
2.4063999652863	-7.5710182432339
2.4068000316620	-7.5254443120502
2.4072000980377	-7.4798851126841
2.4075999259949	-7.4343504127185
2.4079999923706	-7.3888516239053
2.4084000587463	-7.3434006837812
2.4087998867035	-7.2980070341820
2.4091999530792	-7.2526799798613
2.4096000194550	-7.2074280532871
2.4100000858307	-7.1622630818486
2.4103999137878	-7.1171925885242
2.4107999801636	-7.0722235782993
2.4112000465393	-7.0273668759208
2.4116001129150	-6.9826274734623
2.4119999408722	-6.9380145053850
2.4124000072479	-6.8935356215285
2.4128000736237	-6.8491965996343
2.4131999015808	-6.8050049695349
2.4135999679565	-6.7609653693176
2.4140000343323	-6.7170855629958
2.4144001007080	-6.6733713673218
2.4147999286652	-6.6298268265022
2.4151999950409	-6.5864595996112
2.4156000614166	-6.5432727660754
2.4159998893738	-6.5002720235990
2.4163999557495	-6.4574614871048
2.4168000221252	-6.4148469375167
2.4172000885010	-6.3724308294865
2.4175999164581	-6.3302182685746
2.4179999828339	-6.2882127680834
2.4184000492096	-6.2464169984932
2.4188001155853	-6.2048355647706
2.4191999435425	-6.1634711193335
2.4196000099182	-6.1223284476875
2.4200000762939	-6.0814071074300
2.4203999042511	-6.0407126899211
2.4207999706268	-6.0002466264940
2.4212000370026	-5.9600110601314
2.4216001033783	-5.9200094373808
2.4219999313354	-5.8802424249777
2.4223999977112	-5.8407127826891
2.4228000640869	-5.8014223334808
2.4231998920441	-5.7623728726918
2.4235999584198	-5.7235658455417
2.4240000247955	-5.6850024448306
2.4244000911713	-5.6466849838525
2.4247999191284	-5.6086139283405
2.4251999855042	-5.5707898048680
2.4256000518799	-5.5332163549649
2.4260001182556	-5.4958907729849
2.4263999462128	-5.4588160541973
2.4268000125885	-5.4219923960897
2.4272000789642	-5.3854219530867
2.4275999069214	-5.3491031202875
2.4279999732971	-5.3130384969419
2.4284000396729	-5.2772255358994
2.4288001060486	-5.2416686984249
2.4291999340057	-5.2063650501362
2.4296000003815	-5.1713156105612
2.4300000667572	-5.1365192818029
2.4303998947144	-5.1019778237771
2.4307999610901	-5.0676920851046
2.4312000274658	-5.0336591878385
2.4316000938416	-4.9998816029689
2.4319999217987	-4.9663578068632
2.4323999881744	-4.9330880167408
2.4328000545502	-4.9000715647634
2.4331998825073	-4.8673092288151
2.4335999488831	-4.8347982395697
2.4340000152588	-4.8025390495705
2.4344000816345	-4.7705330026516
2.4347999095917	-4.7387777802861
2.4351999759674	-4.7072736514110
2.4356000423431	-4.6760192379650
2.4360001087189	-4.6450157218039
2.4363999366760	-4.6142585481108
2.4368000030518	-4.5837503985427
2.4372000694275	-4.5534893727043
2.4375998973846	-4.5234757067051
