#Parameters = {conPlaceY=21; conPlaceX=0; pinHole=2.4; Pinlength=17.9; tykSkrue=6.2; hightSkrue=8; PinInsCon=4.1; Pincon=1.2; hcon=1.7; Wcon=12.7; h=1.61; tc=0.035; Wf=2; WavelengthsNumber=2; Wavelength=2; Ls=52.3; Ws=56.5; y0=10; Lp=29.4; Wp=35; Mesh Pass=2}
#"Frequency / GHz"	"S1,1 (Mesh Pass=2) [Magnitude / dB]"
#-------------------------------------------------------
2.2999999523163	-3.4702539733744
2.3002998828888	-3.4825270479083
2.3006000518799	-3.4948835666980
2.3008999824524	-3.5073260555597
2.3011999130249	-3.5198551125716
2.3015000820160	-3.5324735273037
2.3018000125885	-3.5451831148119
2.3020999431610	-3.5579866038221
2.3024001121521	-3.5708860862654
2.3027000427246	-3.5838815739830
2.3029999732971	-3.5969761423373
2.3032999038696	-3.6101723527422
2.3036000728607	-3.6234702598860
2.3039000034332	-3.6368734582313
2.3041999340057	-3.6503826091939
2.3045001029968	-3.6640001666598
2.3048000335693	-3.6777272046471
2.3050999641418	-3.6915660753984
2.3053998947144	-3.7055197052660
2.3057000637054	-3.7195867643722
2.3059999942780	-3.7337722014828
2.3062999248505	-3.7480770306480
2.3066000938416	-3.7625010052259
2.3069000244141	-3.7770467423077
2.3071999549866	-3.7917167653364
2.3074998855591	-3.8065132641675
2.3078000545502	-3.8214357578070
2.3080999851227	-3.8364872883330
2.3083999156952	-3.8516689083929
2.3087000846863	-3.8669826880398
2.3090000152588	-3.8824301907530
2.3092999458313	-3.8980131388663
2.3096001148224	-3.9137320569033
2.3099000453949	-3.9295895976287
2.3101999759674	-3.9455876448952
2.3104999065399	-3.9617259883923
2.3108000755310	-3.9780068934507
2.3111000061035	-3.9944320397707
2.3113999366760	-4.0110032022590
2.3117001056671	-4.0277209611448
2.3120000362396	-4.0445868920102
2.3122999668121	-4.0616030356779
2.3125998973846	-4.0787705070408
2.3129000663757	-4.0960900949943
2.3131999969482	-4.1135645810542
2.3134999275208	-4.1311935672332
2.3138000965118	-4.1489792892676
2.3141000270844	-4.1669220786344
2.3143999576569	-4.1850242120670
2.3146998882294	-4.2032870056829
2.3150000572205	-4.2217109227736
2.3152999877930	-4.2402979803473
2.3155999183655	-4.2590494836598
2.3159000873566	-4.2779653462938
2.3162000179291	-4.2970484127678
2.3164999485016	-4.3162972881205
2.3168001174927	-4.3357148578096
2.3171000480652	-4.3553019662684
2.3173999786377	-4.3750601565084
2.3176999092102	-4.3949898942002
2.3180000782013	-4.4150920582166
2.3183000087738	-4.4353682759758
2.3185999393463	-4.4558192967098
2.3189001083374	-4.4764464094312
2.3192000389099	-4.4972487801517
2.3194999694824	-4.5182278380719
2.3197999000549	-4.5393879523383
2.3201000690460	-4.5607251061000
2.3203999996185	-4.5822435944049
2.3206999301910	-4.6039426371138
2.3210000991821	-4.6258223355169
2.3213000297546	-4.6478860253154
2.3215999603271	-4.6701319847788
2.3218998908997	-4.6925626165503
2.3222000598907	-4.7151779621234
2.3224999904633	-4.7379768480545
2.3227999210358	-4.7609628286489
2.3231000900269	-4.7841362526374
2.3234000205994	-4.8074952320350
2.3236999511719	-4.8310441405014
2.3239998817444	-4.8547789834400
2.3243000507355	-4.8787036537737
2.3245999813080	-4.9028183175500
2.3248999118805	-4.9271212557339
2.3252000808716	-4.9516151497066
2.3255000114441	-4.9762993179036
2.3257999420166	-5.0011738192081
2.3261001110077	-5.0262401008828
2.3264000415802	-5.0514975282877
2.3266999721527	-5.0769470040042
2.3269999027252	-5.1025879173499
2.3273000717163	-5.1284218507385
2.3276000022888	-5.1544475135660
2.3278999328613	-5.1806658783138
2.3282001018524	-5.2070762628790
2.3285000324249	-5.2336796819682
2.3287999629974	-5.2604755705427
2.3290998935699	-5.2874646473542
2.3294000625610	-5.3146454855486
2.3296999931335	-5.3420187727331
2.3299999237061	-5.3695849823242
2.3303000926971	-5.3973423281355
2.3306000232697	-5.4252916950459
2.3308999538422	-5.4534324095120
2.3311998844147	-5.4817642942936
2.3315000534058	-5.5102872004149
2.3317999839783	-5.5389997853452
2.3320999145508	-5.5679032764529
2.3324000835419	-5.5969962996899
2.3327000141144	-5.6262779853488
2.3329999446869	-5.6557478857434
2.3333001136780	-5.6854043958292
2.3336000442505	-5.7152484852298
2.3338999748230	-5.7452778365046
2.3341999053955	-5.7754935294861
2.3345000743866	-5.8058919072633
2.3348000049591	-5.8364745711824
2.3350999355316	-5.8672388761241
2.3354001045227	-5.8981848170828
2.3357000350952	-5.9293099657099
2.3359999656677	-5.9606143986351
2.3362998962402	-5.9920969590422
2.3366000652313	-6.0237548609701
2.3368999958038	-6.0555871237982
2.3371999263763	-6.0875915014967
2.3375000953674	-6.1197679823052
2.3378000259399	-6.1521153555580
2.3380999565125	-6.1846307450944
2.3383998870850	-6.2173112840497
2.3387000560760	-6.2501557990181
2.3389999866486	-6.2831638618410
2.3392999172211	-6.3163318005318
2.3396000862122	-6.3496575453690
2.3399000167847	-6.3831401836628
2.3401999473572	-6.4167758863596
2.3405001163483	-6.4505625707613
2.3408000469208	-6.4844964016912
2.3410999774933	-6.5185786678513
2.3413999080658	-6.5528019185509
2.3417000770569	-6.5871662634313
2.3420000076294	-6.6216677870633
2.3422999382019	-6.6563036999629
2.3426001071930	-6.6910709695848
2.3429000377655	-6.7259638056271
2.3431999683380	-6.7609832938805
2.3434998989105	-6.7961229801733
2.3438000679016	-6.8313790603208
2.3440999984741	-6.8667493632914
2.3443999290466	-6.9022287623975
2.3447000980377	-6.9378140636050
2.3450000286102	-6.9735003608963
2.3452999591827	-7.0092832314609
2.3455998897552	-7.0451584689624
2.3459000587463	-7.0811235096668
2.3461999893188	-7.1171701268544
2.3464999198914	-7.1532959912165
2.3468000888824	-7.1894943206230
2.3471000194550	-7.2257622022686
2.3473999500275	-7.2620925537402
2.3477001190186	-7.2984799974929
2.3480000495911	-7.3349184355981
2.3482999801636	-7.3714038734073
2.3485999107361	-7.4079303910733
2.3489000797272	-7.4444896372452
2.3492000102997	-7.4810787253139
2.3494999408722	-7.5176868312920
2.3498001098633	-7.5543124152105
2.3501000404358	-7.5909438111690
2.3503999710083	-7.6275768818005
2.3506999015808	-7.6642042006056
2.3510000705719	-7.7008187598918
2.3513000011444	-7.7374115428459
2.3515999317169	-7.7739766673087
2.3519001007080	-7.8105060298955
2.3522000312805	-7.8469890196600
2.3524999618530	-7.8834205373433
2.3527998924255	-7.9197928841602
2.3531000614166	-7.9560929358602
2.3533999919891	-7.9923155273417
2.3536999225616	-8.0284540690056
2.3540000915527	-8.0644929036509
2.3543000221252	-8.1004276148697
2.3545999526978	-8.1362476155931
2.3548998832703	-8.1719422975493
2.3552000522614	-8.2075033798865
2.3554999828339	-8.2429197880049
2.3557999134064	-8.2781808466842
2.3561000823975	-8.3132767268068
2.3564000129700	-8.3481975168215
2.3566999435425	-8.3829333227016
2.3570001125336	-8.4174692633468
2.3573000431061	-8.4517983521730
2.3575999736786	-8.4859085279467
2.3578999042511	-8.5197859762908
2.3582000732422	-8.5534220707113
2.3585000038147	-8.5868054150557
2.3587999343872	-8.6199220415357
2.3591001033783	-8.6527614476324
2.3594000339508	-8.6853105320529
2.3596999645233	-8.7175577296709
2.3599998950958	-8.7494910944488
2.3603000640869	-8.7810979977179
2.3605999946594	-8.8123666202851
2.3608999252319	-8.8432828208788
2.3612000942230	-8.8738355947512
2.3615000247955	-8.9040114793554
2.3617999553680	-8.9337975269840
2.3620998859406	-8.9631815764057
2.3624000549316	-8.9921503285509
2.3626999855042	-9.0206915200853
2.3629999160767	-9.0487920912284
2.3633000850677	-9.0764390356490
2.3636000156403	-9.1036199916505
2.3638999462128	-9.1303221382682
2.3642001152039	-9.1565312972084
2.3645000457764	-9.1822385902677
2.3647999763489	-9.2074267204502
2.3650999069214	-9.2320863344026
2.3654000759125	-9.2562042338432
2.3657000064850	-9.2797688630038
2.3659999370575	-9.3027668821636
2.3663001060486	-9.3251879685912
2.3666000366211	-9.3470181908808
2.3668999671936	-9.3682483144126
2.3671998977661	-9.3888656010453
2.3675000667572	-9.4088592808958
2.3677999973297	-9.4282195254905
2.3680999279022	-9.4469338535404
2.3684000968933	-9.4649929294593
2.3687000274658	-9.4823873199827
2.3689999580383	-9.4991053545561
2.3692998886108	-9.5151416408507
2.3696000576019	-9.5304822029025
2.3698999881744	-9.5451218404140
2.3701999187469	-9.5590503444485
2.3705000877380	-9.5722613521862
2.3708000183105	-9.5847463118986
2.3710999488831	-9.5964993190775
2.3714001178741	-9.6075119179197
2.3717000484467	-9.6177797101107
2.3719999790192	-9.6272954195363
2.3722999095917	-9.6360538060335
2.3726000785828	-9.6440514680686
2.3729000091553	-9.6512828428689
2.3731999397278	-9.6577452197654
2.3735001087189	-9.6634339055280
2.3738000392914	-9.6683459733858
2.3740999698639	-9.6724804710928
2.3743999004364	-9.6758340700986
2.3747000694275	-9.6784060799940
2.3750000000000	-9.6801967264244
2.3752999305725	-9.6812042716978
2.3756000995636	-9.6814292029048
2.3759000301361	-9.6808722703052
2.3761999607086	-9.6795361981446
2.3764998912811	-9.6774197662997
2.3768000602722	-9.6745284270196
2.3770999908447	-9.6708624721929
2.3773999214172	-9.6664266984128
2.3777000904083	-9.6612250915418
2.3780000209808	-9.6552605166684
2.3782999515533	-9.6485383967058
2.3785998821259	-9.6410640165259
2.3789000511169	-9.6328438990052
2.3791999816895	-9.6238831273297
2.3794999122620	-9.6141861205471
2.3798000812531	-9.6037626014959
2.3801000118256	-9.5926205303741
2.3803999423981	-9.5807668223641
2.3807001113892	-9.5682082121301
2.3810000419617	-9.5549541992130
2.3812999725342	-9.5410135170450
2.3815999031067	-9.5263959268198
2.3819000720978	-9.5111102084805
2.3822000026703	-9.4951657669309
2.3824999332428	-9.4785732761492
2.3828001022339	-9.4613434730060
2.3831000328064	-9.4434864495845
2.3833999633789	-9.4250116481980
2.3836998939514	-9.4059315671419
2.3840000629425	-9.3862579945515
2.3842999935150	-9.3660012826391
2.3845999240875	-9.3451737976304
2.3849000930786	-9.3237851820289
2.3852000236511	-9.3018489911706
2.3854999542236	-9.2793784310296
2.3857998847961	-9.2563825133649
2.3861000537872	-9.2328755410307
2.3863999843597	-9.2088686865570
2.3866999149323	-9.1843749056704
2.3870000839233	-9.1594058775362
2.3873000144958	-9.1339743009188
2.3875999450684	-9.1080923101814
2.3879001140594	-9.0817734519672
2.3882000446320	-9.0550280196535
2.3884999752045	-9.0278684808640
2.3887999057770	-9.0003095544353
2.3891000747681	-8.9723599341958
2.3894000053406	-8.9440354621897
2.3896999359131	-8.9153449618714
2.3900001049042	-8.8863032785296
2.3903000354767	-8.8569198947463
2.3905999660492	-8.8272078509543
2.3908998966217	-8.7971779366105
2.3912000656128	-8.7668431458155
2.3914999961853	-8.7362144352708
2.3917999267578	-8.7053026269543
2.3921000957489	-8.6741197594029
2.3924000263214	-8.6426756857384
2.3926999568939	-8.6109834905854
2.3929998874664	-8.5790521755989
2.3933000564575	-8.5468918056935
2.3935999870300	-8.5145142115410
2.3938999176025	-8.4819300886409
2.3942000865936	-8.4491475397934
2.3945000171661	-8.4161788687273
2.3947999477386	-8.3830332861976
2.3951001167297	-8.3497198766992
2.3954000473022	-8.3162463180648
2.3956999778748	-8.2826254072898
2.3959999084473	-8.2488645648454
2.3963000774384	-8.2149732534995
2.3966000080109	-8.1809594202410
2.3968999385834	-8.1468316666644
2.3972001075745	-8.1125992725165
2.3975000381470	-8.0782693303014
2.3977999687195	-8.0438508558248
2.3980998992920	-8.0093504302472
2.3984000682831	-7.9747773482192
2.3986999988556	-7.9401381356874
2.3989999294281	-7.9054396330441
2.3993000984192	-7.8706905893582
2.3996000289917	-7.8358962740323
2.3998999595642	-7.8010656814826
2.4001998901367	-7.7662025697100
2.4005000591278	-7.7313149455085
2.4007999897003	-7.6964100420606
2.4010999202728	-7.6614924284037
2.4014000892639	-7.6265677941558
2.4017000198364	-7.5916422373380
2.4019999504089	-7.5567230765184
2.4022998809814	-7.5218148205284
2.4026000499725	-7.4869213725059
2.4028999805450	-7.4520501519332
2.4031999111176	-7.4172047776440
2.4035000801086	-7.3823904975299
2.4038000106812	-7.3476113477288
2.4040999412537	-7.3128734284619
2.4044001102448	-7.2781805572418
2.4047000408173	-7.2435363400779
2.4049999713898	-7.2089453108453
2.4052999019623	-7.1744119271481
2.4056000709534	-7.1399412375612
2.4059000015259	-7.1055337159488
2.4061999320984	-7.0711964041787
2.4065001010895	-7.0369305473953
2.4068000316620	-7.0027415034206
2.4070999622345	-6.9686312610049
2.4073998928070	-6.9346034868566
2.4077000617981	-6.9006612469027
2.4079999923706	-6.8668076615516
2.4082999229431	-6.8330456319186
2.4086000919342	-6.7993774313826
2.4089000225067	-6.7658051979273
2.4091999530792	-6.7323333615545
2.4094998836517	-6.6989639202148
2.4098000526428	-6.6656982834009
2.4100999832153	-6.6325389173879
2.4103999137878	-6.5994898220662
2.4107000827789	-6.5665494913821
2.4110000133514	-6.5337239430848
2.4112999439240	-6.5010132266410
2.4116001129150	-6.4684188474623
2.4119000434875	-6.4359434074076
2.4121999740601	-6.4035888729139
2.4124999046326	-6.3713555590779
2.4128000736237	-6.3392464245666
2.4131000041962	-6.3072616480937
2.4133999347687	-6.2754046143855
2.4137001037598	-6.2436759199001
2.4140000343323	-6.2120751748665
2.4142999649048	-6.1806055129134
2.4145998954773	-6.1492674880886
2.4149000644684	-6.1180626044159
2.4151999950409	-6.0869918079199
2.4154999256134	-6.0560555198120
2.4158000946045	-6.0252556508491
2.4161000251770	-5.9945920178253
2.4163999557495	-5.9640664526621
2.4166998863220	-5.9336792342011
2.4170000553131	-5.9034311005531
2.4172999858856	-5.8733232567810
2.4175999164581	-5.8433559290310
2.4179000854492	-5.8135292475153
2.4182000160217	-5.7838453597103
2.4184999465942	-5.7543033585040
2.4188001155853	-5.7249043339168
2.4191000461578	-5.6956483461476
2.4193999767303	-5.6665364683199
2.4196999073029	-5.6375686454482
2.4200000762939	-5.6087449566235
2.4203000068665	-5.5800653593209
2.4205999374390	-5.5515317816026
2.4209001064301	-5.5231432337867
2.4212000370026	-5.4949005924757
2.4214999675751	-5.4668028361152
2.4217998981476	-5.4388518092658
2.4221000671387	-5.4110464587474
2.4223999977112	-5.3833866827911
2.4226999282837	-5.3558723635392
2.4230000972748	-5.3285052808980
2.4233000278473	-5.3012833891144
2.4235999584198	-5.2742084754080
2.4238998889923	-5.2472784849025
2.4242000579834	-5.2204960691715
2.4244999885559	-5.1938582570738
2.4247999191284	-5.1673677129904
2.4251000881195	-5.1410223469869
2.4254000186920	-5.1148220369724
2.4256999492645	-5.0887674836514
2.4260001182556	-5.0628585626568
2.4263000488281	-5.0370941042261
2.4265999794006	-5.0114748739479
2.4268999099731	-4.9860006700509
2.4272000789642	-4.9606703927908
2.4275000095367	-4.9354838585613
2.4277999401093	-4.9104417450213
2.4281001091003	-4.8855430116737
2.4284000396729	-4.8607874297364
2.4286999702454	-4.8361748114515
2.4289999008179	-4.8117049547884
2.4293000698090	-4.7873767941839
2.4296000003815	-4.7631910382377
2.4298999309540	-4.7391465850860
2.4302000999451	-4.7152432975522
2.4305000305176	-4.6914818504488
2.4307999610901	-4.6678602870807
2.4310998916626	-4.6443775763191
2.4314000606537	-4.6210344178064
2.4316999912262	-4.5978315740321
2.4319999217987	-4.5747661521943
2.4323000907898	-4.5518398089531
2.4326000213623	-4.5290515483082
2.4328999519348	-4.5063994377136
2.4331998825073	-4.4838842020225
2.4335000514984	-4.4615057160983
2.4337999820709	-4.4392638429768
2.4340999126434	-4.4171559039731
2.4344000816345	-4.3951843109415
2.4347000122070	-4.3733463895119
2.4349999427795	-4.3516412022040
2.4353001117706	-4.3300703262120
2.4356000423431	-4.3086319711078
2.4358999729156	-4.2873268862759
2.4361999034882	-4.2661524800543
2.4365000724792	-4.2451094870079
2.4368000030518	-4.2241969992227
2.4370999336243	-4.2034149668609
2.4374001026154	-4.1827624993287
2.4377000331879	-4.1622395297250
2.4379999637604	-4.1418443441627
2.4382998943329	-4.1215761019383
2.4386000633240	-4.1014364065799
2.4388999938965	-4.0814235725743
2.4391999244690	-4.0615375987832
2.4395000934601	-4.0417760270733
2.4398000240326	-4.0221396478851
2.4400999546051	-4.0026285138026
2.4403998851776	-3.9832401441204
2.4407000541687	-3.9639761836072
2.4409999847412	-3.9448342380096
2.4412999153137	-3.9258143501549
2.4416000843048	-3.9069165345370
2.4419000148773	-3.8881401048785
2.4421999454498	-3.8694834283116
2.4425001144409	-3.8509458138937
2.4428000450134	-3.8325273115845
2.4430999755859	-3.8142287994042
2.4433999061584	-3.7960472142012
2.4437000751495	-3.7779834210299
2.4440000057220	-3.7600366898513
2.4442999362946	-3.7422055809701
2.4446001052856	-3.7244917907992
2.4449000358582	-3.7068907491339
2.4451999664307	-3.6894056834719
2.4454998970032	-3.6720335507684
2.4458000659943	-3.6547753907115
2.4460999965668	-3.6376281448421
2.4463999271393	-3.6205943679636
2.4467000961304	-3.6036718479155
2.4470000267029	-3.5868600379760
2.4472999572754	-3.5701582124242
2.4475998878479	-3.5535667481182
2.4479000568390	-3.5370834192144
2.4481999874115	-3.5207091799607
2.4484999179840	-3.5044419841361
2.4488000869751	-3.4882827979800
2.4491000175476	-3.4722295473269
2.4493999481201	-3.4562832272719
2.4497001171112	-3.4404410490965
2.4500000476837	-3.4247047249677
2.4502999782562	-3.4090722631977
2.4505999088287	-3.3935439117315
2.4509000778198	-3.3781184026643
2.4512000083923	-3.3627945908707
2.4514999389648	-3.3475733692518
2.4518001079559	-3.3324527888770
2.4521000385284	-3.3174332634387
2.4523999691010	-3.3025134671764
2.4526998996735	-3.2876937535528
2.4530000686646	-3.2729728877162
2.4532999992371	-3.2583497219653
2.4535999298096	-3.2438246336473
2.4539000988007	-3.2293971543945
2.4542000293732	-3.2150646196924
2.4544999599457	-3.2008295939968
2.4547998905182	-3.1866888134445
2.4551000595093	-3.1726448470736
2.4553999900818	-3.1586934603360
2.4556999206543	-3.1448351223359
2.4560000896454	-3.1310709540397
2.4563000202179	-3.1173990962040
2.4565999507904	-3.1038199935375
2.4568998813629	-3.0903302867120
2.4572000503540	-3.0769325660172
2.4574999809265	-3.0636242919581
2.4577999114990	-3.0504060569156
2.4581000804901	-3.0372780204080
2.4584000110626	-3.0242370795840
2.4586999416351	-3.0112844062194
2.4590001106262	-2.9984188681137
2.4593000411987	-2.9856402559100
2.4595999717712	-2.9729475351149
2.4598999023438	-2.9603404316122
2.4602000713348	-2.9478193854388
2.4605000019073	-2.9353833822622
2.4607999324799	-2.9230299646511
2.4611001014709	-2.9107603827511
2.4614000320435	-2.8985743939480
2.4616999626160	-2.8864694877416
2.4619998931885	-2.8744462675381
2.4623000621796	-2.8625058719499
2.4625999927521	-2.8506451994674
2.4628999233246	-2.8388647021680
2.4632000923157	-2.8271642200489
2.4635000228882	-2.8155427760331
2.4637999534607	-2.8039995292361
2.4640998840332	-2.7925341712035
2.4644000530243	-2.7811465682078
2.4646999835968	-2.7698363768561
2.4649999141693	-2.7586015751088
2.4653000831604	-2.7474438183249
2.4656000137329	-2.7363601529773
2.4658999443054	-2.7253519417466
2.4662001132965	-2.7144181817516
2.4665000438690	-2.7035579645244
2.4667999744415	-2.6927705655855
2.4670999050140	-2.6820564583418
2.4674000740051	-2.6714146637143
2.4677000045776	-2.6608445206133
2.4679999351501	-2.6503457895146
2.4683001041412	-2.6399161537331
2.4686000347137	-2.6295583665771
2.4688999652863	-2.6192694902259
2.4691998958588	-2.6090507928694
2.4695000648499	-2.5988992662203
2.4697999954224	-2.5888162776656
2.4700999259949	-2.5788016187607
2.4704000949860	-2.5688530695616
2.4707000255585	-2.5589727219598
2.4709999561310	-2.5491569380841
2.4712998867035	-2.5394069178229
2.4716000556946	-2.5297232815158
2.4718999862671	-2.5201026044337
2.4721999168396	-2.5105472864007
2.4725000858307	-2.5010547249446
2.4728000164032	-2.4916267004433
2.4730999469757	-2.4822597766407
2.4734001159668	-2.4729565884518
2.4737000465393	-2.4637142834516
2.4739999771118	-2.4545335626346
2.4742999076843	-2.4454134752605
2.4746000766754	-2.4363541155397
2.4749000072479	-2.4273546369414
2.4751999378204	-2.4184142459032
2.4755001068115	-2.4095329544673
2.4758000373840	-2.4007098812637
2.4760999679565	-2.3919451914540
2.4763998985291	-2.3832371648149
2.4767000675201	-2.3745867262784
2.4769999980927	-2.3659928639928
2.4772999286652	-2.3574557101813
2.4776000976562	-2.3489737084608
2.4779000282288	-2.3405469520244
