#Parameters = {Lp=29.4; Ls=52.3; PinInsCon=4.1; Pincon=1.2; Pinlength=17.9; Wavelength=2; WavelengthsNumber=2; Wcon=12.7; Wf=2; Wp=35; Ws=56.5; conPlaceX=0; conPlaceY=21; h=1.61; hcon=1.7; hightSkrue=8; pinHole=2.4; tc=0.035; tykSkrue=6.2; y0=10; Mesh Pass=2}
#"Frequency / GHz"	"S1,1 (Mesh Pass=2) [Magnitude / dB]"
#-------------------------------------------------------
2.2999999523163	-3.3118324186847
2.3002998828888	-3.3229745517892
2.3006000518799	-3.3342023853482
2.3008999824524	-3.3455169403016
2.3011999130249	-3.3569196420842
2.3015000820160	-3.3684155837234
2.3018000125885	-3.3800019133931
2.3020999431610	-3.3916862689408
2.3024001121521	-3.4034653927682
2.3027000427246	-3.4153452949762
2.3029999732971	-3.4273264933174
2.3032999038696	-3.4394107771652
2.3036000728607	-3.4515989308846
2.3039000034332	-3.4638964364974
2.3041999340057	-3.4763018639824
2.3045001029968	-3.4888184942191
2.3048000335693	-3.5014478451599
2.3050999641418	-3.5141923282280
2.3053998947144	-3.5270536454205
2.3057000637054	-3.5400326696409
2.3059999942780	-3.5531326396924
2.3062999248505	-3.5663544718246
2.3066000938416	-3.5797007459060
2.3069000244141	-3.5931711691178
2.3071999549866	-3.6067722793622
2.3074998855591	-3.6204996717632
2.3078000545502	-3.6343604935894
2.3080999851227	-3.6483513789669
2.3083999156952	-3.6624770258489
2.3087000846863	-3.6767404850436
2.3090000152588	-3.6911409026413
2.3092999458313	-3.7056812989131
2.3096001148224	-3.7203607913194
2.3099000453949	-3.7351848447516
2.3101999759674	-3.7501518176703
2.3104999065399	-3.7652655980495
2.3108000755310	-3.7805257479747
2.3111000061035	-3.7959344977439
2.3113999366760	-3.8114941656889
2.3117001056671	-3.8272058668766
2.3120000362396	-3.8430695417350
2.3122999668121	-3.8590893032468
2.3125998973846	-3.8752643237999
2.3129000663757	-3.8915988317566
2.3131999969482	-3.9080902545235
2.3134999275208	-3.9247425004177
2.3138000965118	-3.9415561954473
2.3141000270844	-3.9585337480920
2.3143999576569	-3.9756753716118
2.3146998882294	-3.9929818530190
2.3150000572205	-4.0104569900872
2.3152999877930	-4.0281003755242
2.3155999183655	-4.0459116690542
2.3159000873566	-4.0638946089500
2.3162000179291	-4.0820490879052
2.3164999485016	-4.1003769484475
2.3168001174927	-4.1188786887248
2.3171000480652	-4.1375553388015
2.3173999786377	-4.1564107185985
2.3176999092102	-4.1754420932083
2.3180000782013	-4.1946532018066
2.3183000087738	-4.2140429691927
2.3185999393463	-4.2336146162913
2.3189001083374	-4.2533684906504
2.3192000389099	-4.2733039953335
2.3194999694824	-4.2934237094967
2.3197999000549	-4.3137294902532
2.3201000690460	-4.3342194223090
2.3203999996185	-4.3548975703628
2.3206999301910	-4.3757622647176
2.3210000991821	-4.3968173973757
2.3213000297546	-4.4180609805703
2.3215999603271	-4.4394932617974
2.3218998908997	-4.4611178078717
2.3222000598907	-4.4829341604083
2.3224999904633	-4.5049436667090
2.3227999210358	-4.5271456563174
2.3231000900269	-4.5495424944153
2.3234000205994	-4.5721329389617
2.3236999511719	-4.5949218051543
2.3239998817444	-4.6179030343615
2.3243000507355	-4.6410832130867
2.3245999813080	-4.6644595523991
2.3248999118805	-4.6880341812629
2.3252000808716	-4.7118082753860
2.3255000114441	-4.7357800311382
2.3257999420166	-4.7599519260135
2.3261001110077	-4.7843234936128
2.3264000415802	-4.8088948840916
2.3266999721527	-4.8336680680250
2.3269999027252	-4.8586397106585
2.3273000717163	-4.8838157455186
2.3276000022888	-4.9091911417634
2.3278999328613	-4.9347702523300
2.3282001018524	-4.9605512628513
2.3285000324249	-4.9865364673098
2.3287999629974	-5.0127223967734
2.3290998935699	-5.0391103252764
2.3294000625610	-5.0657020689987
2.3296999931335	-5.0924971757955
2.3299999237061	-5.1194947193827
2.3303000926971	-5.1466961110719
2.3306000232697	-5.1740997416318
2.3308999538422	-5.2017060073809
2.3311998844147	-5.2295166450228
2.3315000534058	-5.2575283569012
2.3317999839783	-5.2857431587908
2.3320999145508	-5.3141614065965
2.3324000835419	-5.3427790107055
2.3327000141144	-5.3716002895308
2.3329999446869	-5.4006223747379
2.3333001136780	-5.4298436043741
2.3336000442505	-5.4592669690347
2.3338999748230	-5.4888892686071
2.3341999053955	-5.5187110093758
2.3345000743866	-5.5487314252150
2.3348000049591	-5.5789500337704
2.3350999355316	-5.6093650330291
2.3354001045227	-5.6399774674851
2.3357000350952	-5.6707850590139
2.3359999656677	-5.7017863082875
2.3362998962402	-5.7329838493640
2.3366000652313	-5.7643724732105
2.3368999958038	-5.7959512064571
2.3371999263763	-5.8277222257927
2.3375000953674	-5.8596816649223
2.3378000259399	-5.8918296352800
2.3380999565125	-5.9241632870830
2.3383998870850	-5.9566829849117
2.3387000560760	-5.9893852711771
2.3389999866486	-6.0222704188864
2.3392999172211	-6.0553357416911
2.3396000862122	-6.0885787573791
2.3399000167847	-6.1219994529571
2.3401999473572	-6.1555955767821
2.3405001163483	-6.1893637279577
2.3408000469208	-6.2233024155759
2.3410999774933	-6.2574110375318
2.3413999080658	-6.2916838472563
2.3417000770569	-6.3261225137891
2.3420000076294	-6.3607217608740
2.3422999382019	-6.3954814047442
2.3426001071930	-6.4303968426114
2.3429000377655	-6.4654643483624
2.3431999683380	-6.5006844183746
2.3434998989105	-6.5360513428181
2.3438000679016	-6.5715638847441
2.3440999984741	-6.6072167435746
2.3443999290466	-6.6430083881733
2.3447000980377	-6.6789341547715
2.3450000286102	-6.7149925063339
2.3452999591827	-6.7511779271065
2.3455998897552	-6.7874873665835
2.3459000587463	-6.8239152466922
2.3461999893188	-6.8604596049846
2.3464999198914	-6.8971154451572
2.3468000888824	-6.9338794380301
2.3471000194550	-6.9707448648167
2.3473999500275	-7.0077076442451
2.3477001190186	-7.0447661733966
2.3480000495911	-7.0819111317783
2.3482999801636	-7.1191402880671
2.3485999107361	-7.1564468946175
2.3489000797272	-7.1938261465281
2.3492000102997	-7.2312730893464
2.3494999408722	-7.2687812797469
2.3498001098633	-7.3063454225390
2.3501000404358	-7.3439587204767
2.3503999710083	-7.3816140012029
2.3506999015808	-7.4193078254700
2.3510000705719	-7.4570314462943
2.3513000011444	-7.4947801021194
2.3515999317169	-7.5325429139602
2.3519001007080	-7.5703167029528
2.3522000312805	-7.6080930733306
2.3524999618530	-7.6458635951254
2.3527998924255	-7.6836217054671
2.3531000614166	-7.7213592686397
2.3533999919891	-7.7590681672250
2.3536999225616	-7.7967401486387
2.3540000915527	-7.8343657418027
2.3543000221252	-7.8719382388229
2.3545999526978	-7.9094482517149
2.3548998832703	-7.9468847146990
2.3552000522614	-7.9842418038681
2.3554999828339	-8.0215076053070
2.3557999134064	-8.0586726681385
2.3561000823975	-8.0957297665721
2.3564000129700	-8.1326652967913
2.3566999435425	-8.1694718172465
2.3570001125336	-8.2061363387719
2.3573000431061	-8.2426505865608
2.3575999736786	-8.2790035016651
2.3578999042511	-8.3151833077488
2.3582000732422	-8.3511781019689
2.3585000038147	-8.3869791258372
2.3587999343872	-8.4225722327900
2.3591001033783	-8.4579466661133
2.3594000339508	-8.4930914847930
2.3596999645233	-8.5279947999116
2.3599998950958	-8.5626421254216
2.3603000640869	-8.5970230091408
2.3605999946594	-8.6311249675897
2.3608999252319	-8.6649348563130
2.3612000942230	-8.6984404591775
2.3615000247955	-8.7316282220405
2.3617999553680	-8.7644855827404
2.3620998859406	-8.7969990454377
2.3624000549316	-8.8291567047917
2.3626999855042	-8.8609429351378
2.3629999160767	-8.8923467320017
2.3633000850677	-8.9233532681463
2.3636000156403	-8.9539495930161
2.3638999462128	-8.9841240617112
2.3642001152039	-9.0138597297427
2.3645000457764	-9.0431446007788
2.3647999763489	-9.0719661683646
2.3650999069214	-9.1003080396006
2.3654000759125	-9.1281594918713
2.3657000064850	-9.1555066394322
2.3659999370575	-9.1823364726582
2.3663001060486	-9.2086335696879
2.3666000366211	-9.2343859821584
2.3668999671936	-9.2595810291692
2.3671998977661	-9.2842061613941
2.3675000667572	-9.3082463901629
2.3677999973297	-9.3316918155239
2.3680999279022	-9.3545279643841
2.3684000968933	-9.3767430083983
2.3687000274658	-9.3983252113480
2.3689999580383	-9.4192634197441
2.3692998886108	-9.4395439936236
2.3696000576019	-9.4591585289381
2.3698999881744	-9.4780929458610
2.3701999187469	-9.4963392356002
2.3705000877380	-9.5138856061689
2.3708000183105	-9.5307221372348
2.3710999488831	-9.5468395444240
2.3714001178741	-9.5622283451291
2.3717000484467	-9.5768798542056
2.3719999790192	-9.5907871139737
2.3722999095917	-9.6039393980687
2.3726000785828	-9.6163288874484
2.3729000091553	-9.6279524885044
2.3731999397278	-9.6387997726781
2.3735001087189	-9.6488660233542
2.3738000392914	-9.6581452463631
2.3740999698639	-9.6666329990242
2.3743999004364	-9.6743240202104
2.3747000694275	-9.6812142757869
2.3750000000000	-9.6873001353947
2.3752999305725	-9.6925777290810
2.3756000995636	-9.6970473288496
2.3759000301361	-9.7007047843530
2.3761999607086	-9.7035476799195
2.3764998912811	-9.7055774015787
2.3768000602722	-9.7067938842486
2.3770999908447	-9.7071955715000
2.3773999214172	-9.7067842690157
2.3777000904083	-9.7055611507426
2.3780000209808	-9.7035297390674
2.3782999515533	-9.7006894960374
2.3785998821259	-9.6970451443117
2.3789000511169	-9.6926016475668
2.3791999816895	-9.6873596695155
2.3794999122620	-9.6813275474202
2.3798000812531	-9.6745067484809
2.3801000118256	-9.6669071143760
2.3803999423981	-9.6585311857475
2.3807001113892	-9.6493868310226
2.3810000419617	-9.6394809479386
2.3812999725342	-9.6288215232309
2.3815999031067	-9.6174162320802
2.3819000720978	-9.6052724115883
2.3822000026703	-9.5923993541706
2.3824999332428	-9.5788077162507
2.3828001022339	-9.5645042908520
2.3831000328064	-9.5495022955124
2.3833999633789	-9.5338077160846
2.3836998939514	-9.5174340076872
2.3840000629425	-9.5003902906665
2.3842999935150	-9.4826888821875
2.3845999240875	-9.4643408248161
2.3849000930786	-9.4453571466732
2.3852000236511	-9.4257493636307
2.3854999542236	-9.4055302587999
2.3857998847961	-9.3847120661998
2.3861000537872	-9.3633049016458
2.3863999843597	-9.3413247931766
2.3866999149323	-9.3187812228531
2.3870000839233	-9.2956884205814
2.3873000144958	-9.2720586388593
2.3875999450684	-9.2479049501131
2.3879001140594	-9.2232403276582
2.3882000446320	-9.1980777065781
2.3884999752045	-9.1724302893653
2.3887999057770	-9.1463105648747
2.3891000747681	-9.1197322149140
2.3894000053406	-9.0927075560536
2.3896999359131	-9.0652504952753
2.3900001049042	-9.0373724917950
2.3903000354767	-9.0090873212193
2.3905999660492	-8.9804091364057
2.3908998966217	-8.9513486473956
2.3912000656128	-8.9219202011027
2.3914999961853	-8.8921339290715
2.3917999267578	-8.8620055840030
2.3921000957489	-8.8315450680430
2.3924000263214	-8.8007663189590
2.3926999568939	-8.7696792936860
2.3929998874664	-8.7382973327053
2.3933000564575	-8.7066324897302
2.3935999870300	-8.6746969516808
2.3938999176025	-8.6425004546484
2.3942000865936	-8.6100556742209
2.3945000171661	-8.5773745194692
2.3947999477386	-8.5444660328286
2.3951001167297	-8.5113423996704
2.3954000473022	-8.4780145274273
2.3956999778748	-8.4444921735838
2.3959999084473	-8.4107863695466
2.3963000774384	-8.3769053855424
2.3966000080109	-8.3428618521273
2.3968999385834	-8.3086636191464
2.3972001075745	-8.2743210592616
2.3975000381470	-8.2398435023686
2.3977999687195	-8.2052395867923
2.3980998992920	-8.1705191657376
2.3984000682831	-8.1356903474937
2.3986999988556	-8.1007620159566
2.3989999294281	-8.0657431910808
2.3993000984192	-8.0306403110664
2.3996000289917	-7.9954636002244
2.3998999595642	-7.9602196307038
2.4001998901367	-7.9249156339724
2.4005000591278	-7.8895604599578
2.4007999897003	-7.8541603386819
2.4010999202728	-7.8187219003808
2.4014000892639	-7.7832535643393
2.4017000198364	-7.7477603305677
2.4019999504089	-7.7122502910659
2.4022998809814	-7.6767299711206
2.4026000499725	-7.6412039424777
2.4028999805450	-7.6056786083733
2.4031999111176	-7.5701612361336
2.4035000801086	-7.5346566437491
2.4038000106812	-7.4991700074899
2.4040999412537	-7.4637070122985
2.4044001102448	-7.4282731647529
2.4047000408173	-7.3928726739502
2.4049999713898	-7.3575110256442
2.4052999019623	-7.3221931995707
2.4056000709534	-7.2869231382994
2.4059000015259	-7.2517063011457
2.4061999320984	-7.2165462870815
2.4065001010895	-7.1814471336282
2.4068000316620	-7.1464126312825
2.4070999622345	-7.1114482391706
2.4073998928070	-7.0765560670882
2.4077000617981	-7.0417402354850
2.4079999923706	-7.0070058163899
2.4082999229431	-6.9723540359128
2.4086000919342	-6.9377882738295
2.4089000225067	-6.9033132849240
2.4091999530792	-6.8689304775416
2.4094998836517	-6.8346444680005
2.4098000526428	-6.8004575190453
2.4100999832153	-6.7663712521350
2.4103999137878	-6.7323900767727
2.4107000827789	-6.6985143394962
2.4110000133514	-6.6647481787277
2.4112999439240	-6.6310946438879
2.4116001129150	-6.5975532587737
2.4119000434875	-6.5641285660601
2.4121999740601	-6.5308221966780
2.4124999046326	-6.4976340988870
2.4128000736237	-6.4645696741537
2.4131000041962	-6.4316281447989
2.4133999347687	-6.3988115012991
2.4137001037598	-6.3661232218419
2.4140000343323	-6.3335630035170
2.4142999649048	-6.3011326525275
2.4145998954773	-6.2688343302389
2.4149000644684	-6.2366687406298
2.4151999950409	-6.2046369256539
2.4154999256134	-6.1727420303384
2.4158000946045	-6.1409834925363
2.4161000251770	-6.1093622168681
2.4163999557495	-6.0778797095721
2.4166998863220	-6.0465378122840
2.4170000553131	-6.0153363826713
2.4172999858856	-5.9842767067286
2.4175999164581	-5.9533605610952
2.4179000854492	-5.9225871547000
2.4182000160217	-5.8919576511028
2.4184999465942	-5.8614722853587
2.4188001155853	-5.8311341748740
2.4191000461578	-5.8009403871380
2.4193999767303	-5.7708940422471
2.4196999073029	-5.7409951670776
2.4200000762939	-5.7112438207189
2.4203000068665	-5.6816400146640
2.4205999374390	-5.6521846999939
2.4209001064301	-5.6228788561349
2.4212000370026	-5.5937214467336
2.4214999675751	-5.5647133928891
2.4217998981476	-5.5358546020552
2.4221000671387	-5.5071469360529
2.4223999977112	-5.4785883471231
2.4226999282837	-5.4501796551394
2.4230000972748	-5.4219217487396
2.4233000278473	-5.3938144028170
2.4235999584198	-5.3658565638144
2.4238998889923	-5.3380508921756
2.4242000579834	-5.3103943750374
2.4244999885559	-5.2828896392108
2.4247999191284	-5.2555337039376
2.4251000881195	-5.2283291647670
2.4254000186920	-5.2012748897902
2.4256999492645	-5.1743697116613
2.4260001182556	-5.1476152870457
2.4263000488281	-5.1210114474625
2.4265999794006	-5.0945569426931
2.4268999099731	-5.0682516057463
2.4272000789642	-5.0420961288942
2.4275000095367	-5.0160884160417
2.4277999401093	-4.9902319236364
2.4281001091003	-4.9645218020893
2.4284000396729	-4.9389606115584
2.4286999702454	-4.9135480663210
2.4289999008179	-4.8882830060444
2.4293000698090	-4.8631652502810
2.4296000003815	-4.8381945338535
2.4298999309540	-4.8133706197576
2.4302000999451	-4.7886923516037
2.4305000305176	-4.7641613351608
2.4307999610901	-4.7397755693513
2.4310998916626	-4.7155338728658
2.4314000606537	-4.6914387281955
2.4316999912262	-4.6674863532279
2.4319999217987	-4.6436791976521
2.4323000907898	-4.6200143981487
2.4326000213623	-4.5964926509890
2.4328999519348	-4.5731137183957
2.4331998825073	-4.5498783179642
2.4335000514984	-4.5267827098331
2.4337999820709	-4.5038293568747
2.4340999126434	-4.4810162979530
2.4344000816345	-4.4583425672335
2.4347000122070	-4.4358096584363
2.4349999427795	-4.4134148315122
2.4353001117706	-4.3911596720271
2.4356000423431	-4.3690422854714
2.4358999729156	-4.3470625193620
2.4361999034882	-4.3252193960684
2.4365000724792	-4.3035136328895
2.4368000030518	-4.2819434099356
2.4370999336243	-4.2605077350968
2.4374001026154	-4.2392065232865
2.4377000331879	-4.2180413585996
2.4379999637604	-4.1970095838519
2.4382998943329	-4.1761102883126
2.4386000633240	-4.1553433998814
2.4388999938965	-4.1347096746710
2.4391999244690	-4.1142065142798
2.4395000934601	-4.0938339015326
2.4398000240326	-4.0735925951705
2.4400999546051	-4.0534800386458
2.4403998851776	-4.0334970688509
2.4407000541687	-4.0136419730631
2.4409999847412	-3.9939147569145
2.4412999153137	-3.9743145746584
2.4416000843048	-3.9548422045706
2.4419000148773	-3.9354952835529
2.4421999454498	-3.9162737393179
2.4425001144409	-3.8971767822820
2.4428000450134	-3.8782053126112
2.4430999755859	-3.8593560654555
2.4433999061584	-3.8406307410140
2.4437000751495	-3.8220269165814
2.4440000057220	-3.8035463314767
2.4442999362946	-3.7851849747678
2.4446001052856	-3.7669453908240
2.4449000358582	-3.7488259951712
2.4451999664307	-3.7308260878271
2.4454998970032	-3.7129442308125
2.4458000659943	-3.6951805152765
2.4460999965668	-3.6775350189035
2.4463999271393	-3.6600054738731
2.4467000961304	-3.6425928573077
2.4470000267029	-3.6252957542496
2.4472999572754	-3.6081126809315
2.4475998878479	-3.5910453202368
2.4479000568390	-3.5740915874388
2.4481999874115	-3.5572500503142
2.4484999179840	-3.5405216412666
2.4488000869751	-3.5239057614244
2.4491000175476	-3.5074003497078
2.4493999481201	-3.4910062698007
2.4497001171112	-3.4747215215323
2.4500000476837	-3.4585469802917
2.4502999782562	-3.4424813739384
2.4505999088287	-3.4265234104157
2.4509000778198	-3.4106740899287
2.4512000083923	-3.3949305981234
2.4514999389648	-3.3792938969565
2.4518001079559	-3.3637627723560
2.4521000385284	-3.3483374828148
2.4523999691010	-3.3330167618428
2.4526998996735	-3.3177993939396
2.4530000686646	-3.3026863684000
2.4532999992371	-3.2876750400276
2.4535999298096	-3.2727664132001
2.4539000988007	-3.2579592363258
2.4542000293732	-3.2432524215691
2.4544999599457	-3.2286476480085
2.4547998905182	-3.2141402069168
2.4551000595093	-3.1997333000058
2.4553999900818	-3.1854248746575
2.4556999206543	-3.1712140859504
2.4560000896454	-3.1571011381472
2.4563000202179	-3.1430840541424
2.4565999507904	-3.1291640483776
2.4568998813629	-3.1153392799725
2.4572000503540	-3.1016093717207
2.4574999809265	-3.0879739925962
2.4577999114990	-3.0744319798052
2.4581000804901	-3.0609830591674
2.4584000110626	-3.0476276023726
2.4586999416351	-3.0343637928434
2.4590001106262	-3.0211913409621
2.4593000411987	-3.0081098431098
2.4595999717712	-2.9951184308348
2.4598999023438	-2.9822166764928
2.4602000713348	-2.9694042790836
2.4605000019073	-2.9566810255597
2.4607999324799	-2.9440443814076
2.4611001014709	-2.9314962764301
2.4614000320435	-2.9190342353030
2.4616999626160	-2.9066587845593
2.4619998931885	-2.8943695831856
2.4623000621796	-2.8821643149186
2.4625999927521	-2.8700447614567
2.4628999233246	-2.8580086247003
2.4632000923157	-2.8460562928205
2.4635000228882	-2.8341862321086
2.4637999534607	-2.8223988421039
2.4640998840332	-2.8106939125767
2.4644000530243	-2.7990690718185
2.4646999835968	-2.7875255575436
2.4649999141693	-2.7760610175359
2.4653000831604	-2.7646767851732
2.4656000137329	-2.7533717761221
2.4658999443054	-2.7421444863645
2.4662001132965	-2.7309960865459
2.4665000438690	-2.7199249552741
2.4667999744415	-2.7089303447878
2.4670999050140	-2.6980112962738
2.4674000740051	-2.6871698109342
2.4677000045776	-2.6764014364820
2.4679999351501	-2.6657087769664
2.4683001041412	-2.6550897572228
2.4686000347137	-2.6445447641910
2.4688999652863	-2.6340722407226
2.4691998958588	-2.6236736187670
2.4695000648499	-2.6133456853649
2.4697999954224	-2.6030899278016
2.4700999259949	-2.5929041910452
2.4704000949860	-2.5827895598869
2.4707000255585	-2.5727451909301
2.4709999561310	-2.5627704326205
2.4712998867035	-2.5528636023878
2.4716000556946	-2.5430247814523
2.4718999862671	-2.5332544909453
2.4721999168396	-2.5235517775573
2.4725000858307	-2.5139168279113
2.4728000164032	-2.5043465179091
2.4730999469757	-2.4948422385831
2.4734001159668	-2.4854038634531
2.4737000465393	-2.4760300878900
2.4739999771118	-2.4667199937548
2.4742999076843	-2.4574753545793
2.4746000766754	-2.4482917288556
2.4749000072479	-2.4391728757527
2.4751999378204	-2.4301160111640
2.4755001068115	-2.4211196797862
2.4758000373840	-2.4121866097010
2.4760999679565	-2.4033126833581
2.4763998985291	-2.3944997847970
2.4767000675201	-2.3857464287116
2.4769999980927	-2.3770527362132
2.4772999286652	-2.3684178371238
2.4776000976562	-2.3598416634450
2.4779000282288	-2.3513235994039
